Ret. time (min) ,RI              ,LALS            ,RALS            ,DP              ,IP              
        0.000000,       -1.151289,      464.903503,      248.584091,      -68.958435,       31.997438
        0.003333,       -1.146266,      464.901489,      248.582489,      -68.982368,       31.997869
        0.006667,       -1.147542,      464.899689,      248.580597,      -69.000160,       31.997299
        0.010000,       -1.150320,      464.898102,      248.578598,      -68.980476,       31.996510
        0.013333,       -1.149497,      464.896698,      248.576691,      -68.938271,       31.996609
        0.016667,       -1.142774,      464.895599,      248.575500,      -68.902451,       31.997969
        0.020000,       -1.135149,      464.895081,      248.575195,      -68.925407,       31.999578
        0.023333,       -1.137625,      464.895081,      248.575989,      -69.091949,       31.998989
        0.026667,       -1.178703,      464.895477,      248.577393,      -69.466331,       31.990410
        0.030000,       -1.262379,      464.896576,      248.579086,      -69.799644,       31.972849
        0.033333,       -1.375756,      464.897888,      248.580597,      -70.073578,       31.948679
        0.036667,       -1.510633,      464.899597,      248.582092,      -70.330917,       31.919340
        0.040000,       -1.665711,      464.901581,      248.583694,      -70.610886,       31.884779
        0.043333,       -1.838387,      464.903687,      248.585098,      -70.872360,       31.845089
        0.046667,       -2.020763,      464.905884,      248.586288,      -71.074791,       31.801670
        0.050000,       -2.203039,      464.907898,      248.587387,      -71.195877,       31.756710
        0.053333,       -2.373317,      464.910095,      248.588196,      -71.245270,       31.712399
        0.056667,       -2.526693,      464.912384,      248.588989,      -71.263969,       31.670040
        0.060000,       -2.663269,      464.914703,      248.589493,      -71.275101,       31.629610
        0.063333,       -2.779946,      464.916687,      248.589691,      -71.245079,       31.591549
        0.066667,       -2.873724,      464.918274,      248.589493,      -71.143532,       31.557428
        0.070000,       -2.934700,      464.919281,      248.589096,      -70.952347,       31.529200
        0.073333,       -2.958776,      464.919586,      248.588287,      -70.708008,       31.508499
        0.076667,       -2.946853,      464.919403,      248.587296,      -70.473557,       31.495520
        0.080000,       -2.903929,      464.918701,      248.586197,      -70.256691,       31.489248
        0.083333,       -2.835505,      464.917694,      248.584991,      -70.030106,       31.489180
        0.086667,       -2.742483,      464.916290,      248.583588,      -69.776306,       31.495659
        0.090000,       -2.616660,      464.914886,      248.582397,      -69.397301,       31.510349
        0.093333,       -2.446836,      464.913300,      248.581390,      -68.986542,       31.536139
        0.096667,       -2.257313,      464.911377,      248.580490,      -68.806007,       31.568310
        0.100000,       -2.076991,      464.909485,      248.580093,      -68.777481,       31.600870
        0.103333,       -1.917966,      464.907074,      248.579590,      -68.808311,       31.631159
        0.106667,       -1.782944,      464.904694,      248.579193,      -68.832489,       31.658998
        0.110000,       -1.666420,      464.902374,      248.578796,      -68.827492,       31.685179
        0.113333,       -1.562797,      464.900177,      248.578400,      -68.820190,       31.710279
        0.116667,       -1.474073,      464.898499,      248.577988,      -68.857491,       31.733669
        0.120000,       -1.403649,      464.896881,      248.577591,      -68.916016,       31.754389
        0.123333,       -1.349527,      464.895386,      248.577087,      -68.959259,       31.772509
        0.126667,       -1.305704,      464.894379,      248.576691,      -68.952202,       31.789040
        0.130000,       -1.265280,      464.893799,      248.576401,      -68.908150,       31.805180
        0.133333,       -1.224058,      464.893799,      248.576096,      -68.873650,       31.821360
        0.136667,       -1.187733,      464.894073,      248.575897,      -68.888931,       31.836569
        0.140000,       -1.159110,      464.894501,      248.575699,      -68.916916,       31.849850
        0.143333,       -1.139087,      464.894897,      248.575500,      -68.929581,       31.861399
        0.146667,       -1.122664,      464.895203,      248.575195,      -68.919540,       31.872169
        0.150000,       -1.104041,      464.895294,      248.574890,      -68.874657,       31.883200
        0.153333,       -1.083516,      464.895081,      248.574600,      -68.848038,       31.894579
        0.156667,       -1.065094,      464.894684,      248.574295,      -68.871666,       31.905069
        0.160000,       -1.054370,      464.894501,      248.574188,      -68.924507,       31.913729
        0.163333,       -1.050046,      464.894287,      248.573990,      -68.955788,       31.920799
        0.166667,       -1.048224,      464.894196,      248.573898,      -68.949677,       31.927238
        0.170000,       -1.045001,      464.893982,      248.573700,      -68.921936,       31.933960
        0.173333,       -1.039176,      464.893494,      248.573486,      -68.916847,       31.940750
        0.176667,       -1.036453,      464.892578,      248.573288,      -68.960358,       31.946449
        0.180000,       -1.039531,      464.891479,      248.572998,      -69.002922,       31.950480
        0.183333,       -1.046507,      464.890076,      248.572800,      -69.008209,       31.953400
        0.186667,       -1.050883,      464.888885,      248.572601,      -68.978004,       31.956299
        0.190000,       -1.048760,      464.887695,      248.572495,      -68.931190,       31.959990
        0.193333,       -1.044037,      464.886383,      248.572296,      -68.921738,       31.964069
        0.196667,       -1.041813,      464.885193,      248.572098,      -68.950867,       31.967249
        0.200000,       -1.043790,      464.884094,      248.571899,      -68.969841,       31.969149
        0.203333,       -1.048866,      464.883087,      248.571487,      -68.957657,       31.970490
        0.206667,       -1.051043,      464.882202,      248.571091,      -68.917320,       31.972229
        0.210000,       -1.047521,      464.881287,      248.570496,      -68.864235,       31.974970
        0.213333,       -1.041496,      464.880280,      248.569901,      -68.848808,       31.977970
        0.216667,       -1.039072,      464.879303,      248.569290,      -68.886665,       31.979969
        0.220000,       -1.041650,      464.878296,      248.568695,      -68.928757,       31.980759
        0.223333,       -1.047827,      464.877380,      248.568192,      -68.936150,       31.981070
        0.226667,       -1.051003,      464.876801,      248.567795,      -68.906349,       31.981958
        0.230000,       -1.048881,      464.876190,      248.567398,      -68.883675,       31.983829
        0.233333,       -1.047056,      464.875885,      248.567093,      -68.915161,       31.985699
        0.236667,       -1.049532,      464.875793,      248.566895,      -68.980789,       31.986479
        0.240000,       -1.057210,      464.875885,      248.566788,      -69.033279,       31.986118
        0.243333,       -1.066788,      464.876678,      248.567291,      -69.047249,       31.985489
        0.246667,       -1.071864,      464.877777,      248.568390,      -69.030586,       31.985569
        0.250000,       -1.070340,      464.879303,      248.569794,      -69.032898,       31.986609
        0.253333,       -1.070417,      464.880981,      248.571594,      -69.075478,       31.987450
        0.256667,       -1.075194,      464.882385,      248.573196,      -69.138016,       31.987160
        0.260000,       -1.082370,      464.883881,      248.574692,      -69.176338,       31.985979
        0.263333,       -1.089346,      464.885284,      248.576096,      -69.178467,       31.984879
        0.266667,       -1.091124,      464.886597,      248.577393,      -69.153076,       31.984739
        0.270000,       -1.087100,      464.887787,      248.578598,      -69.160225,       31.985498
        0.273333,       -1.083477,      464.888885,      248.579498,      -69.185501,       31.985929
        0.276667,       -1.084454,      464.889984,      248.580292,      -69.221809,       31.985319
        0.280000,       -1.089630,      464.891174,      248.580795,      -69.222305,       31.984110
        0.283333,       -1.092907,      464.892395,      248.581100,      -69.177849,       31.983290
        0.286667,       -1.089984,      464.893402,      248.581192,      -69.104469,       31.983688
        0.290000,       -1.082160,      464.893890,      248.580887,      -69.079407,       31.984970
        0.293333,       -1.076037,      464.894196,      248.580200,      -69.094017,       31.985800
        0.296667,       -1.073813,      464.894501,      248.579391,      -69.120056,       31.985699
        0.300000,       -1.073791,      464.895081,      248.578400,      -69.107262,       31.985189
        0.303333,       -1.071266,      464.896179,      248.577393,      -69.058029,       31.985289
        0.306667,       -1.063243,      464.897278,      248.576187,      -69.002777,       31.986660
        0.310000,       -1.051420,      464.898193,      248.574600,      -68.988930,       31.988640
        0.313333,       -1.043097,      464.899200,      248.573090,      -69.017868,       31.989948
        0.316667,       -1.039973,      464.899780,      248.571793,      -69.042274,       31.990259
        0.320000,       -1.038150,      464.900696,      248.570892,      -69.040649,       31.990278
        0.323333,       -1.034327,      464.901703,      248.570496,      -68.991737,       31.990919
        0.326667,       -1.026204,      464.902283,      248.570099,      -68.952660,       31.992710
        0.330000,       -1.015381,      464.902283,      248.569595,      -68.956039,       31.994749
        0.333333,       -1.008757,      464.901794,      248.569092,      -68.998108,       31.995869
        0.336667,       -1.007634,      464.900696,      248.568497,      -69.024757,       31.995949
        0.340000,       -1.008411,      464.899200,      248.567993,      -69.032295,       31.995779
        0.343333,       -1.005186,      464.897491,      248.567490,      -69.004089,       31.996309
        0.346667,       -0.996963,      464.895599,      248.567001,      -68.983612,       31.997829
        0.350000,       -0.989240,      464.893677,      248.566589,      -69.007919,       31.999260
        0.353333,       -0.988217,      464.891876,      248.566391,      -69.060822,       31.999599
        0.356667,       -0.991094,      464.890381,      248.566299,      -69.072838,       31.998999
        0.360000,       -0.994070,      464.888885,      248.566391,      -69.050728,       31.998320
        0.363333,       -0.994246,      464.887390,      248.566589,      -69.007095,       31.998499
        0.366667,       -0.989724,      464.885803,      248.566788,      -68.989815,       31.999578
        0.370000,       -0.985599,      464.884094,      248.566895,      -69.029526,       32.000370
        0.373333,       -0.986176,      464.883087,      248.567001,      -69.080139,       32.000000
        0.376667,       -0.991054,      464.882294,      248.567200,      -69.110367,       31.998758
        0.380000,       -0.995130,      464.881989,      248.567200,      -69.093681,       31.997599
        0.383333,       -0.994807,      464.881897,      248.567291,      -69.059021,       31.997410
        0.386667,       -0.990583,      464.881683,      248.567291,      -69.046028,       31.997980
        0.390000,       -0.988060,      464.881378,      248.567200,      -69.076630,       31.998049
        0.393333,       -0.990737,      464.881378,      248.567093,      -69.104462,       31.996939
        0.396667,       -0.997613,      464.881683,      248.567001,      -69.109261,       31.995190
        0.400000,       -1.001890,      464.881989,      248.566895,      -69.070549,       31.993780
        0.403333,       -1.000167,      464.882080,      248.566895,      -69.019791,       31.993528
        0.406667,       -0.994943,      464.882080,      248.567001,      -69.003418,       31.993919
        0.410000,       -0.993919,      464.881989,      248.567200,      -69.021019,       31.993660
        0.413333,       -0.997098,      464.881775,      248.567490,      -69.040337,       31.992319
        0.416667,       -1.001773,      464.881592,      248.567795,      -69.019638,       31.990580
        0.420000,       -1.003349,      464.881592,      248.567993,      -68.967827,       31.989489
        0.423333,       -0.999726,      464.881500,      248.568192,      -68.924385,       31.989630
        0.426667,       -0.994804,      464.881378,      248.568298,      -68.916756,       31.990278
        0.430000,       -0.990881,      464.881073,      248.568298,      -68.933411,       31.990229
        0.433333,       -0.992457,      464.880493,      248.568390,      -68.942635,       31.989300
        0.436667,       -0.995033,      464.879486,      248.568497,      -68.914879,       31.988258
        0.440000,       -0.993910,      464.878174,      248.568497,      -68.869576,       31.988159
        0.443333,       -0.987588,      464.876678,      248.568497,      -68.827148,       31.989340
        0.446667,       -0.979164,      464.875092,      248.568390,      -68.839218,       31.990709
        0.450000,       -0.974741,      464.873474,      248.568192,      -68.879707,       31.991070
        0.453333,       -0.975017,      464.871979,      248.567795,      -68.900002,       31.990479
        0.456667,       -0.975793,      464.870300,      248.567398,      -68.886696,       31.989830
        0.460000,       -0.974070,      464.868591,      248.566895,      -68.832977,       31.990059
        0.463333,       -0.966647,      464.866791,      248.566299,      -68.786667,       31.991320
        0.466667,       -0.960424,      464.865173,      248.565689,      -68.800667,       31.992430
        0.470000,       -0.959900,      464.863800,      248.565094,      -68.828651,       31.992439
        0.473333,       -0.963477,      464.862701,      248.564499,      -68.851158,       31.991629
        0.476667,       -0.966554,      464.862000,      248.563995,      -68.837280,       31.990929
        0.480000,       -0.965130,      464.861786,      248.563690,      -68.795486,       31.991209
        0.483333,       -0.961606,      464.862091,      248.563400,      -68.790436,       31.992300
        0.486667,       -0.959984,      464.862793,      248.563187,      -68.826599,       31.992908
        0.490000,       -0.963360,      464.863800,      248.562988,      -68.874580,       31.992329
        0.493333,       -0.970437,      464.864899,      248.562790,      -68.899239,       31.991058
        0.496667,       -0.978414,      464.865997,      248.562500,      -68.897942,       31.990089
        0.500000,       -0.979691,      464.867096,      248.562195,      -68.874535,       31.990259
        0.503333,       -0.978267,      464.868103,      248.561798,      -68.882065,       31.991179
        0.506667,       -0.978344,      464.868896,      248.561386,      -68.929558,       31.991570
        0.510000,       -0.983220,      464.869476,      248.561096,      -68.977119,       31.990940
        0.513333,       -0.990897,      464.869873,      248.560699,      -69.000877,       31.989939
        0.516667,       -0.994873,      464.869995,      248.560501,      -68.979065,       31.989559
        0.520000,       -0.994050,      464.869873,      248.560501,      -68.965500,       31.990370
        0.523333,       -0.989827,      464.869690,      248.560593,      -68.979927,       31.991650
        0.526667,       -0.987904,      464.869385,      248.560989,      -69.034592,       31.992088
        0.530000,       -0.991681,      464.869293,      248.561386,      -69.068039,       31.991409
        0.533333,       -0.996557,      464.869202,      248.561890,      -69.067009,       31.990370
        0.536667,       -0.998234,      464.869476,      248.562500,      -69.039230,       31.989988
        0.540000,       -0.994811,      464.869781,      248.563293,      -69.002235,       31.990749
        0.543333,       -0.989787,      464.870300,      248.564087,      -69.015900,       31.991789
        0.546667,       -0.989063,      464.871277,      248.564987,      -69.060616,       31.991940
        0.550000,       -0.991240,      464.872375,      248.566101,      -69.083839,       31.991159
        0.553333,       -0.995616,      464.873901,      248.567093,      -69.079926,       31.990299
        0.556667,       -0.997194,      464.875488,      248.568100,      -69.045952,       31.990278
        0.560000,       -0.993270,      464.877197,      248.569092,      -69.016472,       31.991230
        0.563333,       -0.989147,      464.878876,      248.569992,      -69.031960,       31.992119
        0.566667,       -0.990524,      464.880585,      248.570801,      -69.061256,       31.991909
        0.570000,       -0.996800,      464.882202,      248.571793,      -69.084572,       31.990829
        0.573333,       -1.002576,      464.883575,      248.572693,      -69.064919,       31.989769
        0.576667,       -1.003655,      464.884979,      248.573486,      -69.013466,       31.989710
        0.580000,       -0.999631,      464.886383,      248.574188,      -68.986511,       31.990629
        0.583333,       -0.996307,      464.887695,      248.574493,      -68.998848,       31.991329
        0.586667,       -0.996884,      464.888977,      248.574493,      -69.027588,       31.990978
        0.590000,       -1.000760,      464.889801,      248.574387,      -69.030685,       31.989979
        0.593333,       -1.003936,      464.890076,      248.574188,      -69.000679,       31.989279
        0.596667,       -1.001414,      464.890076,      248.573990,      -68.955170,       31.989689
        0.600000,       -0.993491,      464.889984,      248.573792,      -68.932449,       31.990969
        0.603333,       -0.987068,      464.889801,      248.573700,      -68.949585,       31.991850
        0.606667,       -0.984845,      464.889801,      248.573486,      -68.976570,       31.991699
        0.610000,       -0.986121,      464.889496,      248.573196,      -68.977867,       31.991049
        0.613333,       -0.986498,      464.888885,      248.572998,      -68.951416,       31.990870
        0.616667,       -0.980574,      464.888275,      248.572693,      -68.907806,       31.991859
        0.620000,       -0.971151,      464.887787,      248.572388,      -68.894775,       31.993448
        0.623333,       -0.964527,      464.887482,      248.572189,      -68.930557,       31.994440
        0.626667,       -0.963805,      464.887085,      248.571899,      -68.962440,       31.994440
        0.630000,       -0.965480,      464.886688,      248.571701,      -68.961967,       31.994049
        0.633333,       -0.965156,      464.886292,      248.571396,      -68.928787,       31.994268
        0.636667,       -0.959734,      464.885681,      248.571091,      -68.875679,       31.995640
        0.640000,       -0.953111,      464.885101,      248.570892,      -68.882751,       31.997379
