Ret. time (min) ,RI              ,LALS            ,RALS            ,DP              ,IP              
        0.000000,        0.072947,      464.956879,      248.520889,      -69.171906,       32.007908
        0.003333,        0.073696,      464.959290,      248.523697,      -69.197617,       32.007778
        0.006667,        0.068744,      464.962097,      248.526001,      -69.216911,       32.006630
        0.010000,        0.062694,      464.965790,      248.528290,      -69.192657,       32.005329
        0.013333,        0.060443,      464.970581,      248.530487,      -69.137375,       32.004948
        0.016667,        0.063891,      464.975800,      248.532501,      -69.099831,       32.005711
        0.020000,        0.061942,      464.980896,      248.534286,      -69.212608,       32.005581
        0.023333,        0.026190,      464.985596,      248.535797,      -69.569527,       31.997910
        0.026667,       -0.055660,      464.989990,      248.536896,      -69.915520,       31.980370
        0.030000,       -0.173811,      464.994080,      248.537598,      -70.199966,       31.955309
        0.033333,       -0.315662,      464.997986,      248.537994,      -70.433784,       31.924940
        0.036667,       -0.471613,      465.001190,      248.537888,      -70.665459,       31.890400
        0.040000,       -0.640463,      465.003784,      248.537598,      -70.910645,       31.851519
        0.043333,       -0.820515,      465.005676,      248.536789,      -71.138000,       31.808578
        0.046667,       -1.002665,      465.006897,      248.535797,      -71.285675,       31.763159
        0.050000,       -1.177617,      465.007385,      248.534592,      -71.354591,       31.717579
        0.053333,       -1.335668,      465.006989,      248.533188,      -71.346802,       31.673979
        0.056667,       -1.470718,      465.005585,      248.531296,      -71.317368,       31.633419
        0.060000,       -1.585569,      465.002991,      248.528992,      -71.279930,       31.595869
        0.063333,       -1.679020,      465.000183,      248.527298,      -71.202805,       31.561880
        0.066667,       -1.745371,      464.997101,      248.526001,      -71.049767,       31.532999
        0.070000,       -1.778122,      464.993896,      248.525391,      -70.816681,       31.511049
        0.073333,       -1.771172,      464.990479,      248.525696,      -70.542068,       31.497330
        0.076667,       -1.727624,      464.986694,      248.525894,      -70.281799,       31.491529
        0.080000,       -1.656274,      464.983002,      248.526093,      -70.052971,       31.492369
        0.083333,       -1.562926,      464.979797,      248.526093,      -69.815346,       31.499180
        0.086667,       -1.443376,      464.977692,      248.526093,      -69.470688,       31.513020
        0.090000,       -1.285226,      464.976288,      248.526001,      -69.049957,       31.537319
        0.093333,       -1.100578,      464.975281,      248.526093,      -68.808945,       31.569099
        0.096667,       -0.916828,      464.974487,      248.526093,      -68.746758,       31.602610
        0.100000,       -0.754080,      464.974091,      248.526199,      -68.774246,       31.634119
        0.103333,       -0.618830,      464.974396,      248.526199,      -68.822258,       31.662470
        0.106667,       -0.507582,      464.975098,      248.526093,      -68.848427,       31.688129
        0.110000,       -0.413832,      464.976990,      248.526794,      -68.847565,       31.712219
        0.113333,       -0.332383,      464.980774,      248.528793,      -68.838264,       31.735300
        0.116667,       -0.262034,      464.985199,      248.531387,      -68.863586,       31.756659
        0.120000,       -0.207086,      464.990784,      248.534698,      -68.917038,       31.775339
        0.123333,       -0.167535,      464.996277,      248.537888,      -68.937347,       31.791609
        0.126667,       -0.134786,      465.000793,      248.540298,      -68.924469,       31.806549
        0.130000,       -0.104137,      465.004791,      248.542496,      -68.878441,       31.821249
        0.133333,       -0.072588,      465.008789,      248.544495,      -68.853287,       31.836069
        0.136667,       -0.045038,      465.012695,      248.546188,      -68.875847,       31.849930
        0.140000,       -0.026190,      465.016296,      248.547592,      -68.911018,       31.862000
        0.143333,       -0.014540,      465.019287,      248.548492,      -68.928337,       31.872599
        0.146667,       -0.004792,      465.021484,      248.549500,      -68.907906,       31.882719
        0.150000,        0.008258,      465.023499,      248.550888,      -68.868355,       31.893309
        0.153333,        0.023307,      465.025482,      248.552292,      -68.865486,       31.904179
        0.156667,        0.035456,      465.027191,      248.553497,      -68.910530,       31.914019
        0.160000,        0.039004,      465.028687,      248.554489,      -68.963310,       31.922029
        0.163333,        0.036453,      465.029480,      248.554489,      -68.999207,       31.928619
        0.166667,        0.033703,      465.029297,      248.554001,      -69.006691,       31.934719
        0.170000,        0.033851,      465.028595,      248.553299,      -68.995285,       31.941130
        0.173333,        0.036201,      465.027191,      248.552200,      -69.005478,       31.947470
        0.176667,        0.034749,      465.024475,      248.549988,      -69.058197,       31.952570
        0.180000,        0.028298,      465.021088,      248.547287,      -69.110779,       31.955978
        0.183333,        0.016749,      465.018097,      248.544800,      -69.127831,       31.958389
        0.186667,        0.008797,      465.015198,      248.542694,      -69.102295,       31.960918
        0.190000,        0.008446,      465.013000,      248.541290,      -69.060951,       31.964260
        0.193333,        0.010796,      465.011383,      248.540588,      -69.053268,       31.967800
        0.196667,        0.010744,      465.009399,      248.539795,      -69.081818,       31.970379
        0.200000,        0.004993,      465.008301,      248.540390,      -69.099098,       31.971680
        0.203333,       -0.000357,      465.007874,      248.541092,      -69.089600,       31.972448
        0.206667,       -0.002507,      465.008392,      248.542297,      -69.045067,       31.973700
        0.210000,        0.002141,      465.009888,      248.544189,      -68.997978,       31.975960
        0.213333,        0.009891,      465.010803,      248.545090,      -68.999519,       31.978359
        0.216667,        0.011939,      465.011078,      248.545288,      -69.026237,       31.979710
        0.220000,        0.009490,      465.011078,      248.545898,      -69.032707,       31.979959
        0.223333,        0.005438,      465.011383,      248.546799,      -69.014305,       31.979969
        0.226667,        0.005186,      465.011780,      248.547897,      -68.967438,       31.980709
        0.230000,        0.010336,      465.012482,      248.549500,      -68.926567,       31.982439
        0.233333,        0.014486,      465.013489,      248.550797,      -68.934761,       31.984098
        0.236667,        0.013734,      465.014099,      248.551590,      -68.973465,       31.984690
        0.240000,        0.007984,      465.014374,      248.551987,      -68.998680,       31.984379
        0.243333,        0.003032,      465.014282,      248.551987,      -68.975685,       31.983990
        0.246667,        0.001382,      465.013885,      248.551697,      -68.943146,       31.984529
        0.250000,        0.005431,      465.013000,      248.551193,      -68.921387,       31.985960
        0.253333,        0.006980,      465.011780,      248.550293,      -68.954117,       31.987120
        0.256667,        0.003630,      465.010284,      248.549088,      -69.001884,       31.987160
        0.260000,       -0.003122,      465.008484,      248.547394,      -69.027519,       31.986469
        0.263333,       -0.008373,      465.006195,      248.545197,      -69.008125,       31.985989
        0.266667,       -0.007124,      465.002777,      248.542099,      -68.972885,       31.986649
        0.270000,       -0.003973,      464.999786,      248.539795,      -68.950325,       31.988178
        0.273333,       -0.001126,      464.997284,      248.537888,      -68.981171,       31.989319
        0.276667,       -0.003276,      464.995575,      248.536301,      -69.012535,       31.989420
        0.280000,       -0.007226,      464.995300,      248.536194,      -69.010246,       31.988958
        0.283333,       -0.007278,      464.995178,      248.536194,      -68.973175,       31.988979
        0.286667,       -0.002029,      464.994781,      248.536087,      -68.925591,       31.990179
        0.290000,        0.004820,      464.994690,      248.536499,      -68.917725,       31.991919
        0.293333,        0.008469,      464.994781,      248.537201,      -68.951630,       31.992868
        0.296667,        0.007019,      464.994873,      248.538101,      -68.987228,       31.992619
        0.300000,        0.002168,      464.995087,      248.539093,      -68.979431,       31.991859
        0.303333,       -0.000082,      464.994781,      248.539688,      -68.936897,       31.991610
        0.306667,        0.002265,      464.994293,      248.540100,      -68.896080,       31.992418
        0.310000,        0.005716,      464.993591,      248.540298,      -68.907150,       31.993479
        0.313333,        0.005065,      464.992889,      248.540192,      -68.942917,       31.993528
        0.316667,       -0.001086,      464.992096,      248.540192,      -68.978790,       31.992449
        0.320000,       -0.009036,      464.991486,      248.540192,      -68.971100,       31.991018
        0.323333,       -0.013788,      464.990997,      248.540100,      -68.928391,       31.990290
        0.326667,       -0.013840,      464.990784,      248.539993,      -68.891701,       31.990599
        0.330000,       -0.013491,      464.990784,      248.539597,      -68.908485,       31.990990
        0.333333,       -0.018641,      464.990875,      248.538788,      -68.949471,       31.990349
        0.336667,       -0.026291,      464.992493,      248.537689,      -68.977470,       31.988819
        0.340000,       -0.034543,      464.995697,      248.536591,      -68.953957,       31.987259
        0.343333,       -0.037392,      464.999786,      248.535400,      -68.889305,       31.986700
        0.346667,       -0.034844,      465.004974,      248.534393,      -68.849449,       31.987309
        0.350000,       -0.032396,      465.009888,      248.533295,      -68.851990,       31.987940
        0.353333,       -0.033546,      465.013702,      248.532089,      -68.870941,       31.987659
        0.356667,       -0.036697,      465.016602,      248.530594,      -68.865768,       31.986799
        0.360000,       -0.039648,      465.019196,      248.529388,      -68.822525,       31.986279
        0.363333,       -0.037298,      465.021576,      248.528595,      -68.763695,       31.986938
        0.366667,       -0.028750,      465.023682,      248.528397,      -68.735680,       31.988579
        0.370000,       -0.020800,      465.025787,      248.528687,      -68.749352,       31.989929
        0.373333,       -0.017851,      465.028381,      248.529099,      -68.778748,       31.990309
        0.376667,       -0.018302,      465.031281,      248.529297,      -68.781296,       31.990139
        0.380000,       -0.018153,      465.034088,      248.529388,      -68.752892,       31.990389
        0.383333,       -0.012405,      465.036774,      248.529388,      -68.700439,       31.991829
        0.386667,       -0.003654,      465.038574,      248.529388,      -68.694366,       31.993999
        0.390000,        0.002194,      465.038788,      248.529297,      -68.736458,       31.995579
        0.393333,        0.001644,      465.038086,      248.529099,      -68.775719,       31.996038
        0.396667,       -0.001007,      465.036591,      248.528793,      -68.780685,       31.995979
        0.400000,       -0.001158,      465.034485,      248.528397,      -68.752678,       31.996399
        0.403333,        0.002891,      465.030792,      248.527786,      -68.718025,       31.997919
        0.406667,        0.008540,      465.026581,      248.526993,      -68.731590,       31.999899
        0.410000,        0.010890,      465.022583,      248.526093,      -68.780762,       32.001030
        0.413333,        0.007239,      465.018677,      248.525101,      -68.811188,       32.001049
        0.416667,        0.002787,      465.015991,      248.524292,      -68.814171,       32.000648
        0.420000,        0.000437,      465.013885,      248.523590,      -68.783516,       32.000889
        0.423333,        0.004086,      465.011383,      248.523087,      -68.754082,       32.002178
        0.426667,        0.007935,      465.008484,      248.522598,      -68.762299,       32.003571
        0.430000,        0.007185,      465.005188,      248.522186,      -68.805481,       32.003918
        0.433333,        0.000133,      465.001892,      248.522095,      -68.829315,       32.003220
        0.436667,       -0.008717,      464.998779,      248.522186,      -68.813431,       32.002319
        0.440000,       -0.012669,      464.994873,      248.522598,      -68.758636,       32.002190
        0.443333,       -0.011319,      464.991486,      248.523087,      -68.717148,       32.003090
        0.446667,       -0.008870,      464.989685,      248.523590,      -68.719429,       32.003910
        0.450000,       -0.011421,      464.989990,      248.524094,      -68.746819,       32.003651
        0.453333,       -0.017673,      464.992279,      248.524597,      -68.753098,       32.002529
        0.456667,       -0.023723,      464.996185,      248.524994,      -68.708015,       32.001469
        0.460000,       -0.023474,      465.000092,      248.525299,      -68.636681,       32.001450
        0.463333,       -0.020226,      465.003082,      248.525589,      -68.595100,       32.002399
        0.466667,       -0.018175,      465.005585,      248.525894,      -68.606438,       32.003059
        0.470000,       -0.020026,      465.007690,      248.526001,      -68.626717,       32.002628
        0.473333,       -0.026177,      465.009399,      248.526093,      -68.620941,       32.001488
        0.476667,       -0.031129,      465.010498,      248.526001,      -68.583801,       32.000629
        0.480000,       -0.029679,      465.010986,      248.525894,      -68.537048,       32.000900
        0.483333,       -0.024129,      465.011383,      248.525696,      -68.524025,       32.001999
        0.486667,       -0.020980,      465.011993,      248.525391,      -68.554970,       32.002621
        0.490000,       -0.023632,      465.012573,      248.524994,      -68.592102,       32.002148
        0.493333,       -0.028482,      465.013092,      248.524597,      -68.614830,       32.001148
        0.496667,       -0.031834,      465.013092,      248.524200,      -68.587906,       32.000561
        0.500000,       -0.030184,      465.012177,      248.523697,      -68.552887,       32.001080
        0.503333,       -0.025136,      465.010895,      248.523193,      -68.552109,       32.002090
        0.506667,       -0.023286,      465.009399,      248.522690,      -68.593620,       32.002319
        0.510000,       -0.027436,      465.007690,      248.522400,      -68.619110,       32.001438
        0.513333,       -0.034087,      465.005402,      248.521988,      -68.610886,       32.000137
        0.516667,       -0.037439,      465.002686,      248.521698,      -68.567162,       31.999470
        0.520000,       -0.035289,      465.000092,      248.521393,      -68.516411,       31.999960
        0.523333,       -0.031240,      464.997375,      248.520996,      -68.520142,       32.000790
        0.526667,       -0.031792,      464.995087,      248.520691,      -68.553909,       32.000771
        0.530000,       -0.035442,      464.993500,      248.520294,      -68.560486,       31.999800
        0.533333,       -0.040694,      464.991486,      248.519989,      -68.525856,       31.998749
        0.536667,       -0.041544,      464.989075,      248.519699,      -68.463226,       31.998600
        0.540000,       -0.036195,      464.986481,      248.519394,      -68.413918,       31.999670
        0.543333,       -0.030345,      464.984375,      248.519089,      -68.408646,       32.000919
        0.546667,       -0.028796,      464.982697,      248.518799,      -68.425797,       32.001278
        0.550000,       -0.031247,      464.981079,      248.518600,      -68.432037,       32.000820
        0.553333,       -0.033199,      464.979889,      248.518600,      -68.400230,       32.000450
        0.556667,       -0.031049,      464.978973,      248.518890,      -68.347748,       32.001141
        0.560000,       -0.024000,      464.978699,      248.519501,      -68.312981,       32.002899
        0.563333,       -0.018551,      464.979401,      248.520294,      -68.341766,       32.004528
        0.566667,       -0.017702,      464.980896,      248.521194,      -68.392227,       32.005051
        0.570000,       -0.022452,      464.982391,      248.521988,      -68.426041,       32.004799
        0.573333,       -0.026004,      464.983490,      248.522690,      -68.416641,       32.004669
        0.576667,       -0.024554,      464.984375,      248.523392,      -68.392792,       32.005470
        0.580000,       -0.019706,      464.985077,      248.523987,      -68.399078,       32.007019
        0.583333,       -0.016656,      464.985687,      248.524490,      -68.446640,       32.008011
        0.586667,       -0.019807,      464.986389,      248.524887,      -68.510750,       32.007759
        0.590000,       -0.026558,      464.986694,      248.525192,      -68.534241,       32.006710
        0.593333,       -0.032408,      464.986298,      248.525391,      -68.528557,       32.005898
        0.596667,       -0.032860,      464.985382,      248.525497,      -68.509041,       32.006081
        0.600000,       -0.030011,      464.984192,      248.525696,      -68.529205,       32.006779
        0.603333,       -0.030861,      464.982788,      248.525894,      -68.582138,       32.006699
        0.606667,       -0.037411,      464.981293,      248.526199,      -68.625870,       32.005440
        0.610000,       -0.045863,      464.979279,      248.526398,      -68.632820,       32.003700
        0.613333,       -0.051013,      464.977295,      248.526398,      -68.592865,       32.002541
        0.616667,       -0.048965,      464.975494,      248.526093,      -68.546646,       32.002579
        0.620000,       -0.045116,      464.974091,      248.525589,      -68.542198,       32.003078
        0.623333,       -0.044367,      464.973480,      248.524887,      -68.571976,       32.002769
        0.626667,       -0.047817,      464.973297,      248.524292,      -68.582291,       32.001461
        0.630000,       -0.052267,      464.972992,      248.523895,      -68.548950,       31.999979
        0.633333,       -0.053919,      464.972687,      248.523590,      -68.492706,       31.999350
        0.636667,       -0.049170,      464.972473,      248.523392,      -68.436584,       31.999920
        0.640000,       -0.045121,      464.972382,      248.523193,      -68.444092,       32.000721
